**** COMMENT ****

**** INPUTS ****
kVp [kV] hvMIN [keV] Dhv [keV]
80  8  1
Angle [deg.]
30
t_AIR t_BE t_AL t_CU t_SN t_W t_Ta t_Ti t_C t_Wa [mm]
1000  0  1  0  0  0  0  0  0  0
Nf P
0.68  0.33
****CALCULATED OUTPUTS ****
Brem[uGy/mAs@1m] Char[uGy/mAs@1m]
164.5893  0.7133906
HVL1[cm AL] HVL2[cm AL] HVL1[cmCu] HVL2[cmCu] MeanE[keV] EffEAl[keV] EffECu[keV]
0.1331067  0.2340031  0.0042141  0.0079239  37.45419  24.57768  24.92842
**** CALCULATED SPECTRUM ****
Energy[keV]  N[keV cm^2 mAs]^-1 @ 1 meter
8  12.67783
9  934.2242
10  14776.22
11  59255.59
12  184336
13  436699.5
14  878281.6
15  1.469926e+6
16  2.173355e+6
17  2.906630e+6
18  3.608446e+6
19  4.249396e+6
20  4.802896e+6
21  5.257597e+6
22  5.607556e+6
23  5.866435e+6
24  6.037773e+6
25  6.122309e+6
26  6.167559e+6
27  6.154452e+6
28  6.103939e+6
29  6.020339e+6
30  5.900306e+6
31  5.768959e+6
32  5.626165e+6
33  5.468846e+6
34  5.307381e+6
35  5.137748e+6
36  4.966097e+6
37  4.796499e+6
38  4.625084e+6
39  4.455407e+6
40  4.288333e+6
41  4.125355e+6
42  3.965226e+6
43  3.808251e+6
44  3.656056e+6
45  3.508213e+6
46  3.363443e+6
47  3.223810e+6
48  3.086561e+6
49  2.955888e+6
50  2.828374e+6
51  2.703910e+6
52  2.583250e+6
53  2.467592e+6
54  2.354229e+6
55  2.244710e+6
56  2.137637e+6
57  2.034546e+6
58  2.637748e+6
59  3.059643e+6
60  1.741633e+6
61  1.649564e+6
62  1.558915e+6
63  1.471055e+6
64  1.385326e+6
65  1.301243e+6
66  1.219710e+6
67  1.536061e+6
68  1.059214e+6
69  1.085049e+6
70  885132.8
71  811632.5
72  738598.8
73  665104.9
74  591918.4
75  517918.4
76  438191.2
77  359181.4
78  280633.5
79  154874
80  0
